32.02   0.21790980052
32.04   0.216175195143
32.06   0.229835212489
32.08   0.226799653079
32.1   0.222679965308
32.12   0.227016478751
32.14   0.223980919341
32.16   0.240459670425
32.18   0.238725065048
32.2   0.226149176062
32.22   0.225715524718
32.24   0.228317432784
32.26   0.232003469211
32.28   0.234388551605
32.3   0.216175195143
32.32   0.231136166522
32.34   0.228751084128
32.36   0.236339982654
32.38   0.237207285343
32.4   0.243278404163
32.42   0.227233304423
32.44   0.235039028621
32.46   0.232437120555
32.48   0.249783174328
32.5   0.240026019081
32.52   0.243278404163
32.54   0.245663486557
32.56   0.251734605377
32.58   0.253252385082
32.6   0.256938421509
32.62   0.257155247181
32.64   0.242627927147
32.66   0.259106678231
32.68   0.251517779705
32.7   0.251300954033
32.72   0.259973980919
32.74   0.274284475282
32.76   0.289895923677
32.78   0.293581960104
32.8   0.304856895056
32.82   0.314614050304
32.84   0.310060711188
32.86   0.319167389419
32.88   0.330442324371
32.9   0.343668690373
32.92   0.377276669558
32.94   0.404379878578
32.96   0.42172593235
32.98   0.460754553339
33.0   0.494579358196
33.02   0.557675628794
33.04   0.589115351258
33.06   0.639202081526
33.08   0.711405030356
33.1   0.76300954033
33.12   0.839982653946
33.14   0.878143972246
33.16   0.93777103209
33.18   0.972029488291
33.2   1.0
33.22   0.940589765828
33.24   0.922376409367
33.26   0.880312228968
33.28   0.828924544666
33.3   0.7881613183
33.32   0.732220294883
33.34   0.663920208153
33.36   0.624241110147
33.38   0.538594969644
33.4   0.517129228101
33.42   0.467692974848
33.44   0.42671292281
33.46   0.401777970512
33.48   0.387684301821
33.5   0.359063313096
33.52   0.343018213356
33.54   0.320468343452
33.56   0.308542931483
33.58   0.292497831743
33.6   0.294666088465
33.62   0.279705117086
33.64   0.283824804857
33.66   0.272983521249
33.68   0.255420641804
33.7   0.247614917606
33.72   0.253902862099
33.74   0.253902862099
33.76   0.257155247181
33.78   0.242844752819
33.8   0.251951431049
33.82   0.250650477016
33.84   0.246747614918
33.86   0.232220294883
33.88   0.244579358196
33.9   0.238291413703
33.92   0.230052038161
33.94   0.233521248916
33.96   0.234822202949
33.98   0.232220294883
34.0   0.23699045967
34.02   0.226582827407
34.04   0.232003469211
34.06   0.236773633998
34.08   0.227016478751
34.1   0.230052038161
34.12   0.225281873374
34.14   0.222029488291
34.16   0.242844752819
34.18   0.24392888118
34.2   0.226582827407
34.22   0.255203816132
34.24   0.245880312229
34.26   0.215524718127
34.28   0.234171725932
34.3   0.231136166522
34.32   0.239158716392
34.34   0.218560277537
34.36   0.214657415438
34.38   0.225715524718
34.4   0.212705984389
34.42   0.234171725932
34.44   0.23091934085
34.46   0.215307892454
34.48   0.218126626193
34.5   0.236773633998
34.52   0.237640936687
34.54   0.23091934085
34.56   0.215091066782
34.58   0.210537727667
34.6   0.217042497832
34.62   0.212922810061
34.64   0.230052038161
34.66   0.217476149176
34.68   0.228534258456
34.7   0.215307892454
34.72   0.211188204683
34.74   0.215958369471
34.76   0.237857762359
34.78   0.23590633131
34.8   0.21487424111
34.82   0.23395490026
34.84   0.220294882914
34.86   0.223113616652
34.88   0.215958369471
34.9   0.228317432784
34.92   0.235039028621
34.94   0.236123156982
34.96   0.231569817866
34.98   0.210104076323
