32.04   0.0
32.06   0.0
32.08   0.0
32.1   0.0
32.12   0.0
32.14   0.0
32.16   0.0
32.18   0.0
32.2   0.0
32.22   0.0
32.24   0.000893691315655
32.26   0.0045763834471
32.28   0.00695812154555
32.3   0.0
32.32   0.00369904787146
32.34   0.00131062118191
32.36   0.00889617541236
32.38   0.00976013380581
32.4   0.0158279083303
32.42   0.0
32.44   0.00758184419716
32.46   0.00497659183561
32.48   0.0223193013131
32.5   0.0125588017705
32.52   0.015807842557
32.54   0.0181895806554
32.56   0.0242573551799
32.58   0.0257717905893
32.6   0.0294544827208
32.62   0.0296679640972
32.64   0.0151372997677
32.66   0.0316127065561
32.68   0.0240204637346
32.7   0.023800293767
32.72   0.0324699763575
32.74   0.0467771264249
32.76   0.0623852305244
32.78   0.0660679226558
32.8   0.0773395133123
32.82   0.0870933242647
32.84   0.0825366408532
32.86   0.0916399747886
32.88   0.102911565445
32.9   0.116134587152
32.92   0.149739222041
32.94   0.176839086765
32.96   0.194181796242
32.98   0.233207072935
33.0   0.267028533497
33.02   0.330121459799
33.04   0.361557837968
33.06   0.41164122394
33.08   0.483840828475
33.1   0.535441994153
33.12   0.612411763473
33.14   0.650569737478
33.16   0.710193453026
33.18   0.744448564932
33.2   0.772415732345
33.22   0.713002153878
33.24   0.694785453121
33.26   0.652717928427
33.28   0.601326899829
33.3   0.560560329168
33.32   0.504615961455
33.34   0.436312530429
33.36   0.396630088128
33.38   0.310980603329
33.4   0.289511517491
33.42   0.240071919942
33.44   0.199088523609
33.46   0.174150227015
33.48   0.160053214029
33.5   0.131428881008
33.52   0.115380436972
33.54   0.0928272227729
33.56   0.0808984665084
33.58   0.0648500224728
33.6   0.0670149348993
33.62   0.0520506192247
33.64   0.0561669627002
33.66   0.0453223347966
33.68   0.0277561110561
33.7   0.0199470425625
33.72   0.02623164276
33.74   0.0262282984644
33.76   0.0294773392509
33.78   0.0151635005933
33.8   0.0242668345278
33.82   0.0229625361992
33.84   0.0190563298057
33.86   0.00452566547511
33.88   0.0168813844926
33.9   0.010590095704
33.92   0.00234737586646
33.94   0.00581324232591
33.96   0.00711085206336
33.98   0.00450559970181
34.0   0.00927242019326
34.02   0.0
34.04   0.00427874114316
34.06   0.00904556163461
34.08   0.0
34.1   0.00231727720651
34.12   0.0
34.14   0.0
34.16   0.0150999589779
34.18   0.0161807430433
34.2   0.0
34.22   0.0274489894042
34.24   0.0181221412057
34.26   0.0
34.28   0.00640686631756
34.3   0.00336796261202
34.32   0.0113871681865
34.34   0.0
34.36   0.0
34.38   0.0
34.4   0.0
34.42   0.00638345624872
34.44   0.00312772687117
34.46   0.0
34.48   0.0
34.5   0.00897198713252
34.52   0.00983594552597
34.54   0.00311100539342
34.56   0.0
34.58   0.0
34.6   0.0
34.62   0.0
34.64   0.00222698122667
34.66   0.0
34.68   0.000702512930567
34.7   0.0
34.72   0.0
34.74   0.0
34.76   0.0100126396514
34.78   0.0
34.8   0.0
34.82   0.0
34.84   0.0
34.86   0.0
34.88   0.0
34.9   0.0
34.92   0.0
34.94   0.0
