32.01   0.0518790849673
32.02   0.0543300653595
32.03   0.0541258169935
32.04   0.0578022875817
32.05   0.0594362745098
32.06   0.0604575163399
32.07   0.0580065359477
32.08   0.0535130718954
32.09   0.0596405228758
32.1   0.0555555555556
32.11   0.0524918300654
32.12   0.0539215686275
32.13   0.0616830065359
32.14   0.0518790849673
32.15   0.0590277777778
32.16   0.0602532679739
32.17   0.0529003267974
32.18   0.0494281045752
32.19   0.0573937908497
32.2   0.0604575163399
32.21   0.0592320261438
32.22   0.0516748366013
32.23   0.0590277777778
32.24   0.0551470588235
32.25   0.0575980392157
32.26   0.0592320261438
32.27   0.0559640522876
32.28   0.0602532679739
32.29   0.0526960784314
32.3   0.0510620915033
32.31   0.0604575163399
32.32   0.0596405228758
32.33   0.0596405228758
32.34   0.0539215686275
32.35   0.0571895424837
32.36   0.0535130718954
32.37   0.0549428104575
32.38   0.0541258169935
32.39   0.0567810457516
32.4   0.0584150326797
32.41   0.0553513071895
32.42   0.0541258169935
32.43   0.0551470588235
32.44   0.0539215686275
32.45   0.0531045751634
32.46   0.0578022875817
32.47   0.0539215686275
32.48   0.0551470588235
32.49   0.0594362745098
32.5   0.0588235294118
32.51   0.0657679738562
32.52   0.0545343137255
32.53   0.0555555555556
32.54   0.0573937908497
32.55   0.0567810457516
32.56   0.0520833333333
32.57   0.0549428104575
32.58   0.0531045751634
32.59   0.0592320261438
32.6   0.0524918300654
32.61   0.0508578431373
32.62   0.0547385620915
32.63   0.0563725490196
32.64   0.0588235294118
32.65   0.0510620915033
32.66   0.0647467320261
32.67   0.0539215686275
32.68   0.0555555555556
32.69   0.062295751634
32.7   0.0559640522876
32.71   0.0614787581699
32.72   0.0547385620915
32.73   0.0584150326797
32.74   0.0557598039216
32.75   0.0573937908497
32.76   0.0563725490196
32.77   0.0524918300654
32.78   0.0537173202614
32.79   0.0553513071895
32.8   0.0557598039216
32.81   0.0600490196078
32.82   0.0547385620915
32.83   0.0571895424837
32.84   0.0608660130719
32.85   0.062091503268
32.86   0.0567810457516
32.87   0.0586192810458
32.88   0.0600490196078
32.89   0.062091503268
32.9   0.0590277777778
32.91   0.0529003267974
32.92   0.0588235294118
32.93   0.0594362745098
32.94   0.0590277777778
32.95   0.0590277777778
32.96   0.0586192810458
32.97   0.061887254902
32.98   0.0610702614379
32.99   0.0647467320261
33.0   0.0694444444444
33.01   0.0633169934641
33.02   0.0704656862745
33.03   0.0696486928105
33.04   0.0814950980392
33.05   0.0962009803922
33.06   0.104983660131
33.07   0.140318627451
33.08   0.177083333333
33.09   0.246732026144
33.1   0.335784313725
33.11   0.458537581699
33.12   0.601511437908
33.13   0.750204248366
33.14   0.918300653595
33.15   0.976511437908
33.16   1.0
33.17   0.922998366013
33.18   0.800653594771
33.19   0.632557189542
33.2   0.482434640523
33.21   0.320874183007
33.22   0.235294117647
33.23   0.163807189542
33.24   0.130514705882
33.25   0.0968137254902
33.26   0.0902777777778
33.27   0.0870098039216
33.28   0.0800653594771
33.29   0.078227124183
33.3   0.077410130719
33.31   0.0729166666667
33.32   0.0753676470588
33.33   0.0712826797386
33.34   0.0680147058824
33.35   0.0698529411765
33.36   0.0588235294118
33.37   0.062091503268
33.38   0.0606617647059
33.39   0.0641339869281
33.4   0.0533088235294
33.41   0.0616830065359
33.42   0.0645424836601
33.43   0.0641339869281
33.44   0.0520833333333
33.45   0.0529003267974
33.46   0.0592320261438
33.47   0.0565767973856
33.48   0.0561683006536
33.49   0.0569852941176
33.5   0.0584150326797
33.51   0.062295751634
33.52   0.0571895424837
33.53   0.0600490196078
33.54   0.0506535947712
33.55   0.0561683006536
33.56   0.0571895424837
33.57   0.0557598039216
33.58   0.0602532679739
33.59   0.062091503268
33.6   0.0551470588235
33.61   0.0539215686275
33.62   0.0559640522876
33.63   0.0602532679739
33.64   0.0602532679739
33.65   0.0635212418301
33.66   0.0584150326797
33.67   0.0522875816993
33.68   0.0578022875817
33.69   0.0582107843137
33.7   0.0531045751634
33.71   0.0580065359477
33.72   0.0557598039216
33.73   0.0553513071895
33.74   0.0539215686275
33.75   0.0569852941176
33.76   0.0551470588235
33.77   0.0533088235294
33.78   0.0559640522876
33.79   0.0565767973856
33.8   0.0529003267974
33.81   0.0526960784314
33.82   0.0573937908497
33.83   0.0596405228758
33.84   0.0539215686275
33.85   0.0596405228758
33.86   0.0510620915033
33.87   0.0516748366013
33.88   0.0549428104575
33.89   0.0596405228758
33.9   0.0590277777778
33.91   0.0602532679739
33.92   0.0529003267974
33.93   0.0586192810458
33.94   0.0588235294118
33.95   0.0573937908497
33.96   0.0614787581699
33.97   0.0590277777778
33.98   0.0524918300654
33.99   0.0500408496732
34.0   0.0547385620915
34.01   0.0551470588235
34.02   0.0531045751634
34.03   0.0551470588235
34.04   0.0588235294118
34.05   0.0608660130719
34.06   0.0582107843137
34.07   0.0549428104575
34.08   0.0608660130719
34.09   0.062295751634
34.1   0.0506535947712
34.11   0.0559640522876
34.12   0.0590277777778
34.13   0.0569852941176
34.14   0.0559640522876
34.15   0.0555555555556
34.16   0.063112745098
34.17   0.0590277777778
34.18   0.0578022875817
34.19   0.0569852941176
34.2   0.0567810457516
34.21   0.0524918300654
34.22   0.0633169934641
34.23   0.0571895424837
34.24   0.0504493464052
34.25   0.0559640522876
34.26   0.0614787581699
34.27   0.0512663398693
34.28   0.0500408496732
34.29   0.0565767973856
34.3   0.0539215686275
34.31   0.0555555555556
34.32   0.0592320261438
34.33   0.0529003267974
34.34   0.0502450980392
34.35   0.0529003267974
34.36   0.0606617647059
34.37   0.0508578431373
34.38   0.0537173202614
34.39   0.0551470588235
34.4   0.0571895424837
34.41   0.0547385620915
34.42   0.0657679738562
34.43   0.0567810457516
34.44   0.0543300653595
34.45   0.0547385620915
34.46   0.0614787581699
34.47   0.0594362745098
34.48   0.0606617647059
34.49   0.0637254901961
34.5   0.0557598039216
34.51   0.0549428104575
34.52   0.0545343137255
34.53   0.0600490196078
34.54   0.0561683006536
34.55   0.0596405228758
34.56   0.0553513071895
34.57   0.0571895424837
34.58   0.0575980392157
34.59   0.0522875816993
34.6   0.0616830065359
34.61   0.0606617647059
34.62   0.0561683006536
34.63   0.0553513071895
34.64   0.0561683006536
34.65   0.0522875816993
34.66   0.0608660130719
34.67   0.0559640522876
34.68   0.0553513071895
34.69   0.0569852941176
34.7   0.0569852941176
34.71   0.0588235294118
34.72   0.0602532679739
34.73   0.0535130718954
34.74   0.0588235294118
34.75   0.0584150326797
34.76   0.0547385620915
34.77   0.0551470588235
34.78   0.0584150326797
34.79   0.0520833333333
34.8   0.0594362745098
34.81   0.0545343137255
34.82   0.0537173202614
34.83   0.0573937908497
34.84   0.0543300653595
34.85   0.0561683006536
34.86   0.0563725490196
34.87   0.0586192810458
34.88   0.0524918300654
34.89   0.0545343137255
34.9   0.0539215686275
34.91   0.062091503268
34.92   0.0606617647059
34.93   0.0567810457516
34.94   0.0569852941176
34.95   0.0616830065359
34.96   0.0526960784314
34.97   0.0604575163399
34.98   0.0573937908497
34.99   0.0563725490196
